# Test started at Wed Mar 31 19:54:15 2021
time [s],c1 torque cmd [Nm],c1 mode,c1 position [rev],c1 vel [Hz],c1 torque [Nm],c1 voltage [V],c1 temp [C],c1 fault,c2 mode,c2 position [rev],c2 vel [Hz],c2 torque [Nm],c2 voltage [V],c2 temp [C],c2 fault,trd605 torque [Nm]
3.035200006706873e-05,1.7710928357652106e-06,0,-0.22320556640625,0.019073486328125,0.0,36.5,26.0,0,0,0.466064453125,0.03814697265625,0.0,36.5,26.0,0,0.008553599999999762
0.01220219399965572,0.0007120195811034936,9,-0.223388671875,0.0,-0.03124239295721054,36.0,26.0,0,10,0.46588134765625,0.03814697265625,-0.0014803498052060604,36.5,26.0,0,0.015299999999999514
0.02390929699959088,0.0013951497275496551,9,-0.2232666015625,-0.019073486328125,-0.01624312251806259,36.5,26.0,0,10,0.46600341796875,0.0095367431640625,-0.009353579953312874,36.5,26.0,0,0.017999999999999617
0.03554408499985584,0.0020740601659847715,9,-0.2232666015625,0.019073486328125,0.015864964574575424,36.0,26.0,0,10,0.46600341796875,0.03814697265625,0.009560688398778439,36.5,26.0,0,0.024753600000000375
0.047105613999519846,0.002748695812286488,9,-0.223388671875,-0.0286102294921875,-0.009155431762337685,36.5,26.0,0,10,0.4658203125,-0.0095367431640625,-0.007583228405565023,36.5,26.0,0,0.032853600000000684
0.05863843899987842,0.00342165652950889,9,-0.22332763671875,-0.0286102294921875,-0.0037677432410418987,35.0,26.0,0,10,0.4658203125,-0.0095367431640625,-0.004943814594298601,35.5,26.0,0,0.036900000000000335
0.07017430099949706,0.0040947944610044825,9,-0.2230224609375,0.019073486328125,-0.012935146689414978,35.5,26.0,0,10,0.4658203125,-0.0095367431640625,-0.005823653656989336,36.5,27.0,0,0.043646400000000085
0.08167171900004178,0.004765689117223732,9,-0.22314453125,-0.0095367431640625,-0.02009025774896145,35.5,26.0,0,10,0.4658203125,-0.0286102294921875,-0.0072795674204826355,36.5,26.0,0,0.04500000000000064
0.09317561799980467,0.00543696195119926,9,-0.222900390625,0.0095367431640625,0.00832207128405571,36.0,26.0,0,10,0.4658203125,0.0,0.004671401344239712,36.5,26.0,0,0.04769999999999754
0.1048025919999418,0.006115416428919613,9,-0.22265625,0.03814697265625,-0.003674107836559415,36.5,27.0,0,10,0.46575927734375,-0.0095367431640625,-0.004331033211201429,36.5,26.0,0,0.051746400000000393
0.11638039799981925,0.006791001866945172,9,-0.22271728515625,0.0095367431640625,-0.02304021641612053,36.5,26.0,0,10,0.465576171875,-0.0095367431640625,0.00466022128239274,36.5,26.0,0,0.058499999999997956
0.1278518899998744,0.007460383695224726,9,-0.22265625,0.019073486328125,-0.005587194114923477,36.0,26.0,0,10,0.4656982421875,-0.0095367431640625,-0.015800615772604942,36.5,26.0,0,0.061199999999998055
0.13932714099973964,0.008129984867785335,9,-0.22283935546875,-0.0286102294921875,0.012017798610031605,36.5,26.0,0,10,0.4656982421875,-0.019073486328125,-0.012566187418997288,36.5,26.0,0,0.06794639999999781
0.1508377999998629,0.00880165215972678,9,-0.2225341796875,0.0286102294921875,0.004639007151126862,36.5,26.0,0,10,0.46575927734375,0.019073486328125,-0.0046686530113220215,36.5,26.0,0,0.07334639999999801
0.16236384700005146,0.009474217368662566,9,-0.222412109375,0.0,0.0036392519250512123,36.5,26.0,0,10,0.46539306640625,-0.03814697265625,-0.00602157274261117,36.5,26.0,0,0.07604639999999811
0.1738745619995825,0.010145887928268408,9,-0.22235107421875,-0.0286102294921875,0.007260968443006277,35.5,26.0,0,10,0.465576171875,0.0095367431640625,0.007913509383797646,36.5,26.0,0,0.07334639999999801
0.18535925699961808,0.010816040174926463,9,-0.22216796875,-0.0286102294921875,0.01441593561321497,36.5,27.0,0,10,0.46575927734375,0.03814697265625,-0.009674925357103348,35.5,26.0,0,0.07604639999999811
0.1968853050002508,0.011488605442239933,9,-0.2220458984375,0.0,0.003577261231839657,36.5,26.0,0,10,0.46551513671875,0.019073486328125,-0.004657345358282328,36.5,27.0,0,0.07469999999999857
0.208424518999891,0.012161938968859752,9,-0.22216796875,-0.0095367431640625,-0.0036039843689650297,36.5,26.0,0,10,0.4654541015625,-0.0095367431640625,-0.009308869019150734,35.5,26.0,0,0.07604639999999811
0.22010173200033023,0.012843324981019828,9,-0.2218017578125,0.03814697265625,0.012921393848955631,36.5,26.0,0,10,0.46527099609375,-0.019073486328125,0.004772911313921213,36.5,26.0,0,0.07739999999999866
0.2316672059996563,0.01351819082502262,9,-0.22125244140625,0.0667572021484375,-0.014839173294603825,36.0,26.0,0,10,0.46539306640625,-0.0286102294921875,0.014783321879804134,35.5,26.0,0,0.07604639999999811
0.24316890099999,0.014189335051737,9,-0.2203369140625,0.0762939453125,0.0014398469356819987,36.5,26.0,0,10,0.46539306640625,0.019073486328125,-0.012043144553899765,36.5,26.0,0,0.07874639999999822
0.2547199489999912,0.014863359113188509,9,-0.21807861328125,0.19073486328125,0.0019468674436211586,36.5,26.0,0,10,0.46527099609375,0.0,0.001954522216692567,36.5,26.0,0,0.07874639999999822
0.26641938499960816,0.015546041876618549,9,-0.214599609375,0.324249267578125,0.00488602090626955,36.5,26.0,0,10,0.46502685546875,-0.019073486328125,0.012051684781908989,36.5,26.0,0,0.07874639999999822
0.27801919099965744,0.01622291105352804,9,-0.20709228515625,0.7724761962890625,0.002337637124583125,35.5,26.0,0,10,0.46514892578125,-0.019073486328125,-0.005960221402347088,35.0,26.0,0,0.2124000000000006
0.2896900160003497,0.01690392431461531,9,-0.1981201171875,0.6103515625,0.004191922023892403,36.0,26.0,0,10,0.46038818359375,-0.6580352783203125,0.019115636125206947,36.5,26.0,0,0.17459999999999914
0.3014778409997234,0.01759176473236413,9,-0.188232421875,0.9059906005859375,0.018323510885238647,35.0,26.0,0,10,0.449951171875,-0.9441375732421875,0.009770524688065052,36.5,26.0,0,0.20700000000000038
0.3131815540000389,0.01827469706634237,9,-0.176025390625,1.0395050048828125,0.025825800374150276,35.5,26.0,0,10,0.43792724609375,-1.02996826171875,0.00862049125134945,36.5,26.0,0,0.18945360000000022
0.3247178800002075,0.01894786207308994,9,-0.165283203125,0.896453857421875,0.007499143946915865,35.5,26.0,0,10,0.42730712890625,-0.8392333984375,-0.002927561057731509,36.5,27.0,0,0.14084640000000057
0.3362809449999986,0.019622587347713178,9,-0.15728759765625,0.6389617919921875,0.04134185239672661,36.5,26.0,0,10,0.41943359375,-0.64849853515625,-0.007792451418936253,36.5,26.0,0,0.11385360000000055
0.3478723629996239,0.020298967069976366,9,-0.15191650390625,0.3910064697265625,0.010442893952131271,35.0,26.0,0,10,0.41400146484375,-0.3910064697265625,-0.025173258036375046,35.5,26.0,0,0.12330000000000041
0.35956229899966274,0.020981095491644567,9,-0.1494140625,0.152587890625,0.0067826914601027966,35.0,26.0,0,10,0.4119873046875,-0.152587890625,-0.02069980651140213,36.5,26.0,0,0.11925359999999756
0.3712137539996547,0.02166097847896427,9,-0.149169921875,0.019073486328125,0.052338436245918274,36.0,27.0,0,10,0.41229248046875,0.0286102294921875,-0.008279461413621902,36.5,27.0,0,0.13274640000000026
0.3827491900001405,0.022334091552657722,9,-0.14935302734375,0.0,0.052885062992572784,36.0,26.0,0,10,0.41229248046875,-0.019073486328125,0.008344121277332306,36.5,26.0,0,0.13949999999999782
0.3942981449999934,0.023007993483852254,9,-0.14923095703125,0.0476837158203125,0.04337363690137863,36.0,26.0,0,10,0.412353515625,0.019073486328125,-0.004365208093076944,36.5,26.0,0,0.14084640000000057
0.40579661799984024,0.023678949701144963,9,-0.1495361328125,-0.0095367431640625,0.03184599056839943,36.5,26.0,0,10,0.4124755859375,0.019073486328125,0.004087572451680899,36.5,26.0,0,0.14084640000000057
0.4174020170003132,0.024356145239511982,9,-0.14947509765625,0.019073486328125,0.0034007919020950794,36.5,26.0,0,10,0.4122314453125,-0.019073486328125,-0.02067342773079872,36.5,26.0,0,0.13949999999999782
0.4289651569997659,0.025030874890497996,9,-0.1494140625,0.0,0.018311062827706337,36.0,26.0,0,10,0.41229248046875,0.0095367431640625,0.008459411561489105,36.5,26.0,0,0.13949999999999782
0.44191734899959556,0.025786658180154836,9,-0.1495361328125,-0.019073486328125,0.03392712399363518,36.5,26.0,0,10,0.4122314453125,-0.0286102294921875,0.0001293183449888602,36.5,26.0,0,0.13949999999999782
0.45346463799978665,0.02646046289732529,9,-0.1494140625,0.0095367431640625,0.05084814503788948,35.0,26.0,0,10,0.412353515625,0.019073486328125,-0.004184538498520851,36.5,26.0,0,0.13814640000000047
0.46504664799977036,0.0271362936461855,9,-0.1492919921875,-0.019073486328125,0.012876246124505997,36.0,26.0,0,10,0.412353515625,0.0,0.008188406936824322,36.5,26.0,0,0.13679999999999773
0.47658865799985506,0.027809790324371777,9,-0.1494140625,-0.0476837158203125,0.041356783360242844,36.5,26.0,0,10,0.41241455078125,0.0095367431640625,0.004274873062968254,36.5,26.0,0,0.13949999999999782
0.488227908999761,0.028488961186722044,9,-0.1492919921875,0.0286102294921875,0.013489576987922192,36.5,26.0,0,10,0.4122314453125,-0.019073486328125,0.004172060638666153,36.5,26.0,0,0.14084640000000057
0.49981449299957603,0.02916505883655465,9,-0.149169921875,0.057220458984375,0.04812432825565338,35.0,26.0,0,10,0.4122314453125,-0.0095367431640625,-0.012645499780774117,35.5,27.0,0,0.13679999999999773
0.5204848900002617,0.03037121302604601,9,-0.1492919921875,0.0095367431640625,0.008124320767819881,36.0,26.0,0,10,0.41217041015625,-0.0095367431640625,0.0041657849214971066,36.5,26.0,0,0.14219999999999794
0.5321069929996156,0.031049383272263628,9,-0.149169921875,0.019073486328125,0.04422706365585327,36.5,26.0,0,10,0.41204833984375,-0.0286102294921875,-0.004179286304861307,36.5,27.0,0,0.14354640000000068
0.5436167070001829,0.03172099542181118,9,-0.14935302734375,0.019073486328125,0.0393574982881546,36.0,26.0,0,10,0.412353515625,0.0286102294921875,0.008730415254831314,35.5,26.0,0,0.14354640000000068
0.5605011500001638,0.032706232505597205,9,-0.14910888671875,0.03814697265625,0.05622442066669464,35.0,26.0,0,10,0.41241455078125,0.019073486328125,0.004312869627028704,36.5,26.0,0,0.14624639999999758
0.5720538079995094,0.03338035051335533,9,-0.1490478515625,0.03814697265625,0.036682240664958954,36.0,26.0,0,10,0.41229248046875,-0.0286102294921875,-0.008124141953885555,35.5,26.0,0,0.14894639999999768
0.583595207000144,0.034053811538644056,9,-0.1492919921875,0.0,0.01900770515203476,36.0,26.0,0,10,0.4124755859375,0.03814697265625,-0.004312869627028704,36.5,26.0,0,0.14759999999999812
0.5951441070001238,0.034727710260498805,9,-0.14910888671875,0.0667572021484375,0.01479235477745533,36.5,26.0,0,10,0.41217041015625,0.0095367431640625,-0.004269453231245279,35.5,26.0,0,0.14489999999999803
0.6066599870000573,0.035399682207004665,9,-0.14935302734375,-0.0286102294921875,0.04612128064036369,35.0,27.0,0,10,0.41229248046875,-0.0286102294921875,6.465926708187908e-05,36.5,26.0,0,0.14894639999999768
0.618181294000351,0.03607197082857103,9,-0.1494140625,-0.0095367431640625,0.019665395841002464,36.0,26.0,0,10,0.4122314453125,0.0,0.004178315866738558,36.5,26.0,0,0.14759999999999812
0.629678526999669,0.0367428546896418,9,-0.14923095703125,0.0,0.03722650930285454,35.0,26.0,0,10,0.41241455078125,0.03814697265625,9.033464448293671e-05,36.0,26.0,0,0.14894639999999768
0.6412166669997532,0.03741612554648978,9,-0.14910888671875,0.0095367431640625,0.01955339126288891,35.0,26.0,0,10,0.41229248046875,0.0286102294921875,0.004178315866738558,35.0,26.0,0,0.15299999999999833
0.6527348809995601,0.03808823368601241,9,-0.14935302734375,-0.019073486328125,0.012231503613293171,35.0,26.0,0,10,0.41229248046875,-0.0095367431640625,0.016688242554664612,35.5,26.0,0,0.15569999999999845
0.664268206000088,0.038761223579128194,9,-0.1490478515625,0.0095367431640625,0.00523853674530983,36.0,26.0,0,10,0.41229248046875,0.0,0.012224962003529072,35.5,26.0,0,0.15704639999999798
0.6757736789995761,0.039432588258768934,9,-0.14923095703125,-0.0095367431640625,0.03444226458668709,36.0,26.0,0,10,0.41229248046875,-0.0095367431640625,0.01245152112096548,36.5,26.0,0,0.15839999999999854
0.6872716529996978,0.040103515358545956,9,-0.14923095703125,0.019073486328125,0.022382881492376328,36.0,26.0,0,10,0.412353515625,0.019073486328125,-9.033471724251285e-05,36.5,27.0,0,0.15839999999999854
0.6995070510001824,0.040817472451769136,9,-0.149169921875,0.0095367431640625,0.010060005821287632,36.0,26.0,0,10,0.412109375,-0.019073486328125,0.008357939310371876,36.5,26.0,0,0.1597463999999981
0.7112386529997821,0.041502032158135346,9,-0.14935302734375,0.0,0.01086457259953022,35.0,26.0,0,10,0.412353515625,0.0,-0.020651688799262047,36.5,26.0,0,0.1624463999999982
0.7227958670000589,0.04217641601659824,9,-0.14923095703125,-0.019073486328125,0.01902000419795513,36.5,26.0,0,10,0.4122314453125,-0.0095367431640625,-0.008214802481234074,36.5,26.0,0,0.1651463999999983
0.7343230440001207,0.04284904716302333,9,-0.149169921875,-0.019073486328125,0.06856118887662888,36.0,26.0,0,10,0.41217041015625,-0.019073486328125,0.004113952163606882,36.5,26.0,0,0.1678463999999984
0.7458295549995455,0.04352047241179453,9,-0.14910888671875,-0.0095367431640625,0.06716376543045044,36.0,26.0,0,10,0.41229248046875,0.019073486328125,0.012457450851798058,36.5,26.0,0,0.1705463999999985
0.7573821759997372,0.044194588260586636,9,-0.1490478515625,-0.019073486328125,0.025724397972226143,36.0,26.0,0,10,0.41229248046875,0.0,0.008279135450720787,36.5,26.0,0,0.1759535999999997
0.7688250940000216,0.044862302745489434,9,-0.1488037109375,0.0,0.018766475841403008,36.5,26.0,0,10,0.4119873046875,-0.0286102294921875,0.00413342472165823,36.0,26.0,0,0.18269999999999947
0.7803837339997699,0.04553676981354122,9,-0.1485595703125,0.019073486328125,0.006316400598734617,36.5,27.0,0,10,0.412109375,0.0095367431640625,0.004153128247708082,36.5,27.0,0,0.18809999999999966
0.7919658000000709,0.046212603830118895,9,-0.148193359375,0.0286102294921875,0.05922792851924896,36.5,26.0,0,10,0.41156005859375,-0.0286102294921875,0.008279160596430302,35.5,26.0,0,0.19079999999999978
0.8034820880002371,0.04688459958415926,9,-0.148193359375,0.019073486328125,0.014405864290893078,35.5,26.0,0,10,0.41156005859375,-0.0095367431640625,-0.00022947708202991635,36.5,26.0,0,0.1921536000000003
0.8150291359997937,0.047558390238516844,9,-0.14794921875,0.019073486328125,0.02059941366314888,35.5,26.0,0,10,0.41143798828125,-0.019073486328125,-0.008278332650661469,36.5,27.0,0,0.1921536000000003
0.8265399609999804,0.04823006721685532,9,-0.1473388671875,0.0476837158203125,0.02110935188829899,36.5,26.0,0,10,0.41107177734375,-0.0095367431640625,-0.004047640133649111,36.5,26.0,0,0.19619999999999999
0.8380092309998872,0.04889931938749995,9,-0.14703369140625,0.0286102294921875,0.07564370334148407,36.5,27.0,0,10,0.41064453125,-0.0095367431640625,-0.0005377426859922707,36.5,26.0,0,0.1921536000000003
0.8495329819998005,0.049571750620762654,9,-0.14678955078125,0.0286102294921875,0.06008104607462883,35.5,26.0,0,10,0.410400390625,-0.0286102294921875,-0.004290863871574402,36.5,26.0,0,0.19079999999999978
0.8707523960001708,0.05080994092229626,9,-0.14654541015625,0.0,0.06995627284049988,36.5,26.0,0,10,0.40997314453125,-0.0286102294921875,0.004324259236454964,36.5,26.0,0,0.1921536000000003
0.8826237200000833,0.051502653654268885,9,-0.1466064453125,0.0,0.057339247316122055,36.5,26.0,0,10,0.41009521484375,-0.019073486328125,0.017275074496865273,35.5,27.0,0,0.19485360000000043
0.8943925820003642,0.05218938754751311,9,-0.14642333984375,0.0095367431640625,0.023353351280093193,35.5,26.0,0,10,0.41021728515625,0.0095367431640625,0.004307696595788002,36.5,26.0,0,0.19349999999999987
0.9060559070003364,0.0528699631703059,9,-0.14630126953125,0.0095367431640625,0.024308931082487106,35.5,26.0,0,10,0.40985107421875,-0.03814697265625,-0.023387325927615166,35.5,27.0,0,0.19755360000000052
0.9176754170002823,0.05354798211042624,9,-0.14569091796875,0.0667572021484375,0.032015375792980194,36.5,26.0,0,10,0.40936279296875,-0.0476837158203125,0.0043876594863832,36.5,26.0,0,0.19755360000000052
0.9292023349998999,0.054220598143717755,9,-0.14501953125,0.057220458984375,0.03153078258037567,36.5,25.0,0,10,0.40814208984375,-0.133514404296875,-0.026601998135447502,36.5,26.0,0,0.20700000000000038
0.9407342340000469,0.054893504827191575,9,-0.1435546875,0.1239776611328125,-0.004888706374913454,35.0,26.0,0,10,0.4071044921875,-0.1049041748046875,-0.0187285877764225,36.5,26.0,0,0.21644640000000023
0.9532696309997846,0.0556249673921181,9,-0.14215087890625,0.1049041748046875,0.010397263802587986,35.5,26.0,0,10,0.40557861328125,-0.1430511474609375,0.01600787788629532,36.5,26.0,0,0.22454640000000053
0.9649485669997375,0.05630645394434433,9,-0.14007568359375,0.1621246337890625,0.01944761537015438,36.5,26.0,0,10,0.40380859375,-0.19073486328125,-0.024981210008263588,36.5,26.0,0,0.23264639999999764
0.9764674480002213,0.05697860100453506,9,-0.137451171875,0.247955322265625,0.0611901693046093,35.0,26.0,0,10,0.401123046875,-0.2384185791015625,0.0021124649792909622,36.5,26.0,0,0.23804639999999785
0.9879331800002547,0.05764764672663544,9,-0.134521484375,0.2574920654296875,0.046578533947467804,36.0,26.0,0,10,0.398193359375,-0.26702880859375,0.01645229384303093,36.5,26.0,0,0.23804639999999785
0.9994166169999517,0.05831772556675086,9,-0.13104248046875,0.3147125244140625,0.04109153896570206,36.5,26.0,0,10,0.39459228515625,-0.3337860107421875,-0.012204185128211975,36.0,26.0,0,0.24479999999999863
1.0108979609995004,0.058987682276609305,9,-0.12677001953125,0.3719329833984375,0.023449037224054337,35.0,27.0,0,10,0.39031982421875,-0.3719329833984375,0.004373021889477968,36.5,26.0,0,0.22724640000000065
1.0223989899996013,0.05965878764103328,9,-0.12109375,0.553131103515625,0.04309584200382233,35.5,26.0,0,10,0.38397216796875,-0.6198883056640625,0.020801560953259468,35.5,26.0,0,0.21104640000000002
1.0338612779996765,0.060327632399650576,9,-0.11083984375,0.9822845458984375,0.04933050274848938,35.5,26.0,0,10,0.3731689453125,-1.087188720703125,0.0291654821485281,35.5,26.0,0,0.2542463999999985
1.04534539999986,0.06099775121075478,9,-0.09423828125,1.52587890625,-0.008944115601480007,36.5,26.0,0,10,0.35662841796875,-1.506805419921875,0.014082705602049828,36.5,26.0,0,0.2596535999999997
1.0569857430000411,0.061676985793250656,9,-0.076171875,1.5354156494140625,0.032417114824056625,35.5,26.0,0,10,0.33648681640625,-1.659393310546875,-0.003616785164922476,36.5,26.0,0,0.2596535999999997
1.071054340000046,0.06249791328735049,9,-0.051025390625,1.8405914306640625,0.025151770561933517,36.5,26.0,0,10,0.3121337890625,-1.79290771484375,0.019943492487072945,36.5,26.0,0,0.2528999999999989
1.0841974209997716,0.06326483528745128,9,-0.02252197265625,2.346038818359375,0.038926854729652405,36.5,25.0,0,10,0.2821044921875,-2.40325927734375,0.021259823814034462,35.5,26.0,0,0.3041999999999977
1.097507241999665,0.06404148686119072,9,0.0087890625,2.2792816162109375,0.04654448479413986,36.0,26.0,0,10,0.24456787109375,-2.3555755615234375,0.020782561972737312,36.5,26.0,0,0.24479999999999863
1.1131689650001135,0.06495537607246314,9,0.04461669921875,2.3746490478515625,0.03905532881617546,35.5,26.0,0,10,0.21356201171875,-2.4509429931640625,0.023750707507133484,36.5,26.0,0,0.27449999999999974
1.1263653240002895,0.06572540693803221,9,0.08148193359375,2.93731689453125,0.02518262155354023,36.5,26.0,0,10,0.17669677734375,-2.86102294921875,0.008203146979212761,35.5,26.0,0,0.30554640000000044
1.1397215890001462,0.06650476860123584,9,0.119140625,2.6988983154296875,0.07661058753728867,35.5,26.0,0,10,0.13739013671875,-2.7942657470703125,0.002275126986205578,35.5,26.0,0,0.24344639999999806
1.1532607059998554,0.06729480000172958,9,0.1661376953125,3.31878662109375,0.03967469930648804,36.5,26.0,0,10,0.09173583984375,-3.185272216796875,0.030761610716581345,36.5,26.0,0,0.30554640000000044
1.1679565049998928,0.0681523258407945,9,0.20599365234375,2.9850006103515625,0.046042826026678085,36.0,26.0,0,10,0.050048828125,-3.1757354736328125,0.011834666132926941,36.5,26.0,0,0.3244463999999979
1.180903159999616,0.06890778603671127,9,0.2509765625,3.70025634765625,0.06235424801707268,35.5,26.0,0,10,0.00408935546875,-3.62396240234375,0.024600859731435776,35.0,26.0,0,0.3176999999999982
