# ./bin/dynamometer -c asdf --test-mode GRP --frequency 600 --duration 3 
time [s],a1 velocity [rad/s],trs605-5 torque [Nm]
0.011684201,0.034557519,0.0040003061
0.013352323,-0.017278759,-0.0019996166
0.015019314,-0.025132741,0.010000229
0.016680751,0.025132741,0.0040003061
0.018348872,-0.017278759,0.0040003061
0.020011401,0.034557519,0.0040003061
 0.0216748,-0.025132741,-0.0019996166
0.023345717,-0.097389371,0.0040003061
0.025016302,0.054977871,0.010000229
0.02668796,-0.0062831852,0.0040003061
0.028345767,0.10838494,0.0040003061
0.030017518,-0.061261056,0.0040003061
0.031676843,-0.031415926,0.0040003061
0.033343205,0.010995574,-0.0019996166
0.035009493,-0.047123889,0.010000229
0.036674466,0.054977871,-0.0019996166
0.038343235,0.037699111,0.0040003061
0.040009542,0.023561945,-0.01399982
0.041674497,0.064402648,-0.007999897
0.043340136,0.094247778,-0.019999743
0.045003795,0.23876104,-0.025999665
0.046672601,0.37227872,-0.031999588
0.048340815,0.68957958,-0.025999665
0.050004177, 1.0995574,-0.043999791
0.051668558, 1.6666149,-0.037999868
0.053334031, 2.2399555,-0.043999791
0.055001523,  2.814867,-0.043999791
0.056668792,  3.485597,-0.043999791
0.058340877, 4.2835615,-0.043999791
0.060004757, 5.1333623,-0.037999868
0.061671897, 5.7051322,-0.031999588
0.063331796, 6.2753312,-0.025999665
0.064996955, 6.8266807,-0.01399982
0.066655891, 7.2240922,-0.0019996166
0.068320734, 7.5602426,0.0040003061
0.069990411, 7.7173222,0.028000355
0.07165531, 7.6843355,0.028000355
0.073321154, 7.5194019, 0.0400002
0.074989183,   7.14084,0.052000403
0.076660637, 6.5612161, 0.0400002
0.078329962, 5.8622118,0.046000123
0.079988972, 4.9652871,0.046000123
0.081652649, 4.0071014, 0.0400002
0.083320956, 3.1698669,0.046000123
0.084986688, 2.2807962,0.028000355
0.086658995, 1.4058627,0.034000278
0.088314079,0.58747782,0.022000074
0.089982812,-0.26703537,0.028000355
0.091648489,-0.67544241,0.0040003061
0.093314462,-1.0602875,-0.007999897
0.094983657,-1.2315043,-0.01399982
0.09664876,-1.1372565,-0.031999588
0.098312733,-1.0791371,-0.043999791
0.099979095,-0.67544241,-0.049999714
0.10164629,0.069115037,-0.049999714
 0.1033143,0.95347335,-0.055999637
0.10498429, 1.7168804,-0.055999637
0.10664167, 2.6782077,-0.055999637
 0.1083077, 3.5060173,-0.055999637
0.10998006, 4.5286057,-0.049999714
0.11164326, 5.4852207,-0.049999714
0.11331525, 6.4921011,-0.055999637
0.11497417, 7.4361497,-0.049999714
0.11664349, 8.3550655,-0.06799984
0.11830397, 8.9613929,-0.06799984
0.11999448, 10.075087,-0.091999888
0.12163371, 11.199778,-0.091999888
0.12330913, 12.390441,-0.097999811
0.12497482, 13.703627,-0.10999966
0.12664096, 14.994821,-0.11599994
0.12830486, 16.501215,-0.11599994
0.12997413,  18.30606,-0.10999966
0.13163346, 20.000949,-0.10999966
0.13330271,   21.7571,-0.097999811
0.13496596, 23.535241,-0.097999811
0.13663469, 25.173582,-0.091999888
0.13832198, 26.789931,-0.06799984
0.13996393, 28.170661,-0.055999637
0.14162754, 29.626789,-0.031999588
0.14329977, 30.548846,-0.007999897
0.14496158, 31.318537,0.022000074
0.14663047, 31.521169,0.052000403
0.14829308, 31.415926,0.064000249
0.14996107, 30.696501,0.10600007
0.15162602, 29.422585,0.11800027
0.15329851, 27.746546,0.13000011
0.15495969, 25.728073,0.11800027
0.15662478, 23.378161,0.11800027
0.15829384, 20.756502,0.10600007
0.15996441, 18.361038,0.088000298
 0.1616509, 15.885463,0.09400022
0.16330219,  13.59053,0.064000249
0.16496124, 11.515508, 0.0400002
 0.1666315, 9.6949548,0.010000229
0.16829048, 8.3534947,-0.007999897
0.16996127, 7.4125877,-0.025999665
0.17162796, 6.9680524,-0.055999637
0.17328843, 7.0136055,-0.085999608
0.17495115,  7.557101,-0.10399973
0.17661777, 8.1964151,-0.10399973
0.17828056, 9.4828973,-0.10999966
0.17995727, 11.091393,-0.10999966
0.18161384, 12.955928,-0.097999811
0.18328231, 14.908428,-0.085999608
0.18495043, 16.780817,-0.091999888
  0.186617,  18.42387,-0.085999608
0.18827788, 20.236569,-0.085999608
0.18994885, 21.768095,-0.085999608
0.19161092, 23.252498,-0.073999763
0.19328239, 24.458869,-0.079999685
0.19494849, 25.646391,-0.073999763
0.19660658, 26.705108,-0.06799984
0.19827198, 27.649156,-0.06799984
0.19995414, 28.577497,-0.073999763
0.20161487, 29.521546,-0.06799984
0.20327764, 30.248824,-0.06799984
0.20494637, 31.218006,-0.061999917
0.20661367, 31.874599,-0.043999791
  0.208277, 32.584598,-0.06799984
0.20994777,   33.2192,-0.085999608
 0.2116095, 33.844377,-0.079999685
0.21328723, 34.464842,-0.079999685
0.21493865, 35.421457,-0.079999685
0.21660805, 36.233558,-0.085999608
0.21827856, 37.237297,-0.079999685
0.21993867,   38.1892,-0.06799984
0.22162103, 39.137961,-0.06799984
0.22327056,  40.26108,-0.085999608
0.22493734, 41.349642,-0.085999608
0.22660696, 42.301544,-0.085999608
0.22826364, 43.302142,-0.085999608
0.22993434, 44.387562,-0.10399973
0.23160235, 45.543668,-0.085999608
0.23327401, 46.894553,-0.085999608
0.23493603, 47.917141,-0.073999763
0.23660597, 49.202053,-0.06799984
 0.2382772, 50.268623,-0.049999714
0.23992936, 51.377605,-0.025999665
 0.2415987,-50.753999,0.022000074
0.24325953,-50.125681,0.046000123
 0.2449206,-49.995305,0.064000249
0.24658459, -50.42099,0.10000014
0.24825206,-51.192251,0.11200035
0.24991807, 50.497959,0.13000011
 0.2515913,  48.62557,0.13600039
0.25325529, 46.308646,0.14200032
 0.2549186, 43.724686,0.13000011
0.25658869, 41.084177,0.13600039
0.25825436, 38.239465,0.13600039
 0.2599178, 35.316213,0.12400019
0.26158298, 32.474643,0.12400019
0.26325574, 29.771302,0.11800027
0.26491407, 27.060108,0.10600007
0.26658471, 24.722763,0.10000014
0.26824926, 22.379135,0.088000298
0.26991718, 20.333958,0.076000094
0.27158752, 18.475706,0.070000172
0.27324455, 16.711702,0.070000172
0.27491659, 15.210021,0.064000249
0.27657366, 13.914114,0.064000249
0.27825008, 12.475264,0.058000326
 0.2799204, 11.377278,0.070000172
0.28157226,  10.19761,0.070000172
0.28324394, 9.1341805,0.064000249
 0.2849181, 7.9309505,0.076000094
 0.2865845, 6.8345347,0.064000249
0.28824834, 5.6108844,0.058000326
0.28990822, 4.5945792,0.070000172
0.29156992, 3.3426545,0.070000172
0.29324424, 2.1598449,0.070000172
0.29491133,0.94090698,0.088000298
0.29656912,-0.4256858,0.082000375
0.29823722,-1.8048449,0.11200035
 0.2999061,-3.2735395,0.11800027
0.30157074,-5.0799552,0.11200035
0.30323842,-6.8125436,0.11200035
0.30496378,-8.7242027,0.11200035
0.30656668, -10.75053,0.10600007
0.30826226,-12.758008,0.11200035
0.30990588,-14.680662,0.10000014
0.31157113,-16.615883,0.082000375
0.31323215,-18.274644,0.064000249
0.31489454, -20.10148,0.052000403
0.31656026,-21.320418,0.022000074
 0.3182323,-22.573914,-0.019999743
0.31989554,-23.444135,-0.025999665
0.32155729,-23.915374,-0.055999637
 0.3232278,-23.714312,-0.091999888
0.32489601,-23.155108,-0.10999966
0.32655371, -22.17179,-0.11599994
0.32822509,-20.775352,-0.10999966
0.32988312,-18.843272,-0.10999966
0.33155498,-16.617454,-0.097999811
0.33322151, -14.44033,-0.097999811
0.33488439,-12.360596,-0.091999888
0.33655708,-10.136349,-0.085999608
 0.3382185,-8.2089815,-0.079999685
0.33989549,-6.3742914,-0.079999685
0.34155378,-4.4563491,-0.079999685
0.34321683,-2.8337165,-0.079999685
0.34487893,-1.3383184,-0.073999763
0.34654055,-0.094247778,-0.06799984
0.34820664, 1.4058627,-0.061999917
0.34988257, 2.5321236,-0.049999714
 0.3515511, 3.7432076,-0.055999637
0.35321091, 4.7406632,-0.049999714
0.35488192, 5.8653534,-0.049999714
0.35654891, 6.5706409,-0.037999868
0.35821268, 7.3764594,-0.049999714
0.35987676, 8.2875213,-0.049999714
0.36154898, 9.1907292,-0.049999714
0.36325178, 10.087654,-0.043999791
0.36488148, 10.764667,-0.025999665
0.36654229, 11.590906,-0.007999897
0.36821276, 12.126547,0.010000229
0.36987599, 12.517676,0.022000074
0.37156093, 12.652764,0.052000403
0.37320603,  12.42657,0.088000298
0.37487249, 11.867366,0.088000298
0.37653603, 10.920176,0.10600007
 0.3782078, 9.8111937,0.076000094
0.37987441, 8.2388266,0.10000014
0.38153549, 6.5455082,0.088000298
0.38324482, 4.9809951,0.088000298
0.38486834,  3.331659,0.088000298
0.38653059, 1.5519467,0.082000375
0.38820351,0.054977871,0.088000298
  0.389867,-1.4247122,0.088000298
 0.3915317, -2.968805,0.088000298
0.39319014,-4.4312164,0.10000014
0.39485502, -5.852787,0.10600007
0.39652073,-7.3843134,0.11200035
0.39818661,-8.9739593,0.12400019
0.39986227,-10.607587,0.11800027
0.40152069,-12.586791,0.11200035
0.40319355,-14.448184,0.11200035
0.40485556, -16.31272,0.11800027
0.40652161, -18.36418,0.13000011
0.40818808, -20.18002,0.11200035
  0.409859,-22.237763,0.10000014
 0.4115271, -24.30179,0.088000298
0.41319087,-26.219732,0.064000249
0.41486125,-27.917763,0.046000123
0.41653278,-29.425727, 0.0400002
 0.4181949,  -30.5944,0.028000355
0.41987419,-31.437917,-0.007999897
0.42153427,-31.943714,-0.007999897
0.42318708,-32.270439,-0.037999868
0.42485968, -31.87774,-0.061999917
0.42651438,-31.389222,-0.079999685
0.42820624,-30.369776,-0.085999608
0.42984034,-29.004754,-0.085999608
 0.4315065,-27.405683,-0.085999608
0.43317764,-25.816037,-0.079999685
0.43483937,-23.898095,-0.085999608
0.43650449,-22.178073,-0.079999685
0.43817039,-20.282122,-0.06799984
0.43983635,-18.546392,-0.06799984
0.44150239,-16.779246,-0.061999917
0.44316852,-15.232012,-0.06799984
0.44483469,-13.698915,-0.06799984
 0.4465008,-12.258494,-0.06799984
0.44816636,-10.851061,-0.073999763
0.44983748,-9.4876097,-0.06799984
0.45149892,-8.1712824,-0.073999763
0.45316411,-6.7748444,-0.06799984
0.45483087,-5.5826101,-0.06799984
0.45650508, -4.156327,-0.06799984
0.45816879,-2.9263935,-0.061999917
0.45984162,-1.6524777,-0.061999917
0.46155117,-0.41154863,-0.055999637
0.46316306,0.76654859,-0.055999637
0.46482641, 1.9524998,-0.06799984
0.46649246, 2.9907962,-0.079999685
 0.4681583, 4.1971677,-0.091999888
0.46982444, 5.1255083,-0.097999811
0.47149025, 6.4072781,-0.10399973
0.47315651, 7.9136718,-0.10399973
0.47482245, 9.4734725,-0.10999966
0.47648902, 11.081968,-0.11599994
 0.4781544, 12.693605,-0.10999966
 0.4798203, 14.575419,-0.10999966
0.48148647, 16.562476,-0.10399973
0.48315261, 18.387741,-0.10399973
0.48481859, 20.244423,-0.10399973
0.48648432, 22.160794,-0.091999888
0.48815037, 23.824267,-0.085999608
 0.4898163, 25.516015,-0.085999608
0.49148244, 27.031834,-0.097999811
0.49314858, 28.616767,-0.091999888
0.49481446, 29.940948,-0.085999608
0.49648051, 31.136324,-0.085999608
0.49814641, 32.579886,-0.091999888
 0.4998122,  33.59305,-0.10399973
0.50147834, 34.989488,-0.097999811
 0.5031445, 36.308956,-0.097999811
 0.5048104, 37.592297,-0.085999608
0.50647639, 38.988735,-0.097999811
 0.5081423, 40.185682,-0.085999608
0.50980848, 41.525571,-0.091999888
0.51147445, 42.896876,-0.085999608
0.51314059, 44.078115,-0.085999608
0.51480642, 45.463557,-0.085999608
0.51647248, 46.658933,-0.06799984
0.51813838, 47.870017,-0.073999763
0.51980441, 48.953867,-0.073999763
0.52147048, 49.943468,-0.061999917
0.52313647,  51.01161,-0.043999791
0.52480248,-51.118424,-0.037999868
0.52646845,-50.384862,-0.031999588
0.52813487, -49.75026,-0.025999665
0.52980051,-49.279022,-0.025999665
0.53146637,-49.021411,-0.031999588
0.53313272,-48.787362,-0.031999588
0.53479836,-48.548601,-0.031999588
0.53646429,-48.253292,-0.031999588
0.53813038,-48.094641,-0.037999868
0.53979635, -48.03338,-0.031999588
0.54146255,-47.833889,-0.037999868
 0.5431285,-47.749066,-0.025999665
0.54479451, -47.63911,-0.0019996166
0.54646054, -47.50088,-0.0019996166
0.54812635,-47.491455,0.0040003061
0.54979241,-47.551146,-0.0019996166
0.55145844,-47.750637,-0.007999897
0.55312456,-47.929708,-0.0019996166
0.55479037,-48.314553,-0.0019996166
 0.5564563,-48.845482,-0.01399982
0.55812241,-49.054398,-0.019999743
0.55978844,-49.464375,-0.019999743
0.56146245,-49.971743,-0.01399982
0.56315531,-50.463402,0.0040003061
0.56479786,-50.780703,0.010000229
0.56646153,-51.295924,0.016000152
0.56812613, 51.087008,0.034000278
0.56979066, 50.234066,0.034000278
0.57147232, 49.363845,0.052000403
0.57312831, 48.050659,0.064000249
0.57479668,  46.88984,0.064000249
0.57645658, 45.295482,0.052000403
0.57812418, 43.867628,0.064000249
0.57978708, 42.091058,0.070000172
0.58145885, 40.135416,0.076000094
 0.5831386, 38.278735,0.076000094
0.58479863, 36.194288,0.058000326
 0.5864751, 34.109842,0.082000375
0.58813396, 32.237452,0.076000094
 0.5898071, 30.233116,0.088000298
0.59146048, 28.379577,0.10000014
0.59311759,  26.35482,0.10600007
0.59479095, 24.447874,0.10600007
0.59645401, 22.435684,0.11800027
0.59812632, 20.132896,0.11800027
0.59978637,  17.89137,0.11800027
 0.6014538, 15.326259,0.11200035
0.60312078, 12.872676,0.13000011
 0.6047941, 10.472499,0.13000011
0.60645528, 7.9199549,0.13600039
0.60811457, 5.5166366,0.13000011
 0.6097905, 3.0740484,0.13000011
0.61145746,0.91263265,0.12400019
 0.6131038, -1.449845,0.11800027
 0.6147665,-3.7055085,0.10600007
0.61644525,-5.7114153,0.11200035
0.61814961,-7.5131187,0.10600007
0.61977986,-9.3965035,0.09400022
0.62144435,-11.177786,0.088000298
0.62310694, -12.56637,0.09400022
 0.6247778,-14.061768,0.088000298
0.62644227,-15.186459,0.088000298
0.62810037,-16.592321,0.082000375
0.62976157,-17.742144,0.082000375
0.63142645,-18.909246,0.082000375
0.63310846,-19.710352,0.058000326
0.63478584,-20.729799,0.058000326
0.63644191,-21.863914,0.076000094
0.63811182,-22.583338,0.076000094
0.63977533,-23.489688,0.046000123
0.64143181, -24.30179,0.046000123
 0.6430968,-25.054201,0.034000278
 0.6447612, -25.60555,0.016000152
0.64642123,-25.982542,0.0040003061
0.64808644,-26.299842,-0.007999897
0.64976497,-26.237011,-0.019999743
0.65143615,-26.095639,-0.019999743
0.65309671,-25.706081,-0.031999588
  0.654769,-25.060484,-0.025999665
0.65643892,-24.471436,-0.01399982
0.65809045,-23.714312,-0.007999897
0.65975925,-22.990175,0.0040003061
0.66141899,-22.190639,-0.0019996166
0.66308844,-21.570175,0.0040003061
0.66474651,-21.117785,0.016000152
 0.6664297,-20.704666,0.034000278
 0.6681033,-20.467476,0.058000326
0.66976324,-20.432918,0.070000172
0.67142868,-20.688958,0.088000298
0.67308789,-21.441369,0.10000014
0.67474686,-22.226768,0.10600007
0.67642367,-23.500683,0.12400019
0.67807998,-24.681922,0.11800027
0.67974038,-26.422365,0.11200035
0.68140641,-28.074842,0.11200035
0.68307719,-29.804289,0.09400022
0.68475518,-31.536877,0.11200035
0.68642014,-33.304023,0.10600007
0.68808658,-35.028757,0.076000094
0.68975568,-36.549288,0.064000249
0.69140861, -37.93316,0.058000326
0.69307925,-39.086124,0.052000403
0.69473984,-39.868381,0.022000074
0.69640085,-40.586235,0.010000229
0.69806627,-40.870549,0.0040003061
0.69975279,-40.857983,-0.007999897
0.70142166,-40.579952,-0.007999897
0.70308291,-40.248514,-0.01399982
 0.7047516,-39.613912,-0.037999868
0.70641132,-38.751545,-0.031999588
0.70806777,-37.930018,-0.025999665
0.70974013,-37.073934,-0.01399982
0.71139774, -36.09847,-0.01399982
0.71306054,-35.176412,-0.007999897
0.71472626,-34.439709,-0.007999897
0.71640445,-33.946479,0.0040003061
0.71809635,-33.145373,-0.01399982
0.71973982, -32.64586,0.0040003061
0.72140874,-32.199753,0.016000152
0.72307099,-31.676678,0.028000355
0.72472941,-31.409643,0.016000152
 0.7263992,-31.062497,0.022000074
0.72806088,-30.778183,0.022000074
0.72972118, -30.69336,0.022000074
0.73138647,-30.545705,0.022000074
0.73307141,-30.503293,0.016000152
 0.7347429,-30.583404,0.0040003061
0.73640333,-30.504864,-0.007999897
 0.7380711,-30.517431,0.0040003061
0.73973408,-30.368205,0.016000152
0.74138722,-30.253537,0.022000074
0.74305743,-29.970793,0.022000074
 0.7447175,-29.813714,0.022000074
0.74638069,-29.813714, 0.0400002
0.74804646,-29.625218,0.046000123
0.74972164,-29.832563,0.034000278
 0.7514075,-30.109023,0.022000074
0.75305488,-30.288094,0.028000355
0.75473056, -30.47659,0.028000355
0.75638987,-30.960395,0.034000278
0.75804825,-30.977674,0.028000355
0.75972527,-31.379798,0.028000355
0.76137828,-31.656258,0.022000074
0.76305309,-31.912298,0.028000355
0.76472093, -32.29243,0.016000152
0.76639507,-32.542187,0.028000355
0.76806453, -32.84378, 0.0400002
0.76973097,-33.161081, 0.0400002
0.77139005,-33.626036, 0.0400002
0.77305249,-34.116125,0.046000123
0.77472466, -34.65962,0.070000172
0.77638236,-35.410461,0.076000094
0.77804878, -36.07962,0.082000375
0.77970769,-37.022098,0.070000172
0.78138383,-37.974001,0.064000249
0.78304114,-39.056279,0.070000172
0.78470593,-39.989332,0.064000249
0.78637668,-41.242828,0.058000326
0.78803854,-42.040792, 0.0400002
0.78971075,-42.554443,0.034000278
 0.7913733,-43.421522,-0.0019996166
0.79303948, -43.63358,-0.025999665
0.79470032,-43.668137,-0.055999637
0.79636854,-43.556611,-0.079999685
0.79804294,-42.835615,-0.097999811
0.79970389,-41.487872,-0.10399973
0.80138223,-39.805549,-0.15199983
0.80304598, -37.67712,-0.12799978
0.80470216, -35.13243,-0.12199986
0.80637056,-32.537475,-0.13399971
0.80802805,-29.991214,-0.10999966
0.80969675,-27.157497,-0.11599994
0.81135904,-24.672497,-0.11599994
0.81304047,-21.992719,-0.10999966
0.81469624,-19.382056,-0.12199986
0.81637136,-16.919047,-0.12799978
0.81804259, -14.40106,-0.14599991
0.81969425,-12.093561,-0.12799978
0.82136273,-9.5190256,-0.12799978
 0.8230317,-7.0701541,-0.13399971
0.82469903,-4.8537606,-0.13399971
0.82634981,-2.3640484,-0.13999963
 0.8280233,-0.034557519,-0.14599991
0.82969533, 2.5007077,-0.12799978
0.83135216,  4.757942,-0.13399971
0.83302639, 7.2790701,-0.13399971
0.83469933, 9.6415477,-0.12199986
 0.8363563, 11.906636,-0.12199986
 0.8380229, 14.178007,-0.12799978
0.83968397, 16.424246,-0.11599994
0.84134439, 18.474135,-0.10399973
0.84301828, 20.224002,-0.10399973
 0.8446903, 22.134091,-0.10399973
0.84634662, 23.915374,-0.10399973
0.84800717, 25.528581,-0.10399973
0.84968612, 27.055395,-0.10399973
0.85135308, 28.640329,-0.091999888
0.85302757, 30.099599,-0.091999888
0.85469136, 31.659399,-0.091999888
0.85633909, 33.110815,-0.10399973
0.85801149, 34.414576,-0.091999888
0.85968224, 35.628802,-0.097999811
0.86135521, 36.894863,-0.085999608
0.86302607, 38.448381,-0.079999685
 0.8646769, 39.648469,-0.06799984
0.86635141, 40.751168,-0.031999588
0.86801168, 41.743912,-0.01399982
0.86968169, 42.482186,0.010000229
 0.8713417, 42.893735,0.028000355
0.87300497, 42.813624,0.052000403
0.87467215, 42.620416,0.058000326
0.87634003, 41.894708,0.058000326
 0.8780077, 40.787297,0.058000326
0.87966559, 39.582496,0.058000326
0.88132704, 38.241036,0.058000326
0.88300505, 36.915284,0.052000403
0.88468073, 35.284797,0.058000326
 0.8863444, 33.816103,0.052000403
0.88801062, 32.380395,0.058000326
0.88967368, 31.032652,0.046000123
0.89133621, 29.852984,0.052000403
0.89299885, 28.564931,0.046000123
0.89466038, 27.556479, 0.0400002
0.89632152, 26.519754,0.046000123
0.89798634, 25.539577, 0.0400002
0.89966671, 24.718051,0.046000123
0.90133412, 23.758294,0.052000403
0.90299778, 22.877077,0.046000123
0.90466474, 22.000573,0.046000123
0.90633255, 21.282719,0.052000403
0.90799415, 20.252277,0.052000403
0.90966445, 19.283095,0.046000123
 0.9113217, 18.315485,0.034000278
0.91298118, 17.559932,0.016000152
0.91464663, 16.674003,0.0040003061
 0.9163245, 16.028405,-0.019999743
0.91799226, 15.428361,-0.031999588
0.91965329, 15.260286,-0.06799984
0.92132623, 15.326259,-0.097999811
0.92299113, 15.667122,-0.10999966
 0.9246509, 16.444666,-0.10999966
 0.9263198, 17.572498,-0.12199986
0.92797933, 19.097741,-0.11599994
0.92964091, 21.020396,-0.11599994
 0.9313064, 23.005883,-0.10999966
0.93298534, 24.898692,-0.10399973
0.93466366, 26.835484,-0.10999966
0.93631478, 28.776988,-0.10999966
0.93798496, 30.569267,-0.091999888
 0.9396556, 32.070948,-0.091999888
0.94130806, 33.834952,-0.085999608
0.94298158, 35.284797,-0.06799984
0.94464043, 36.744067,-0.061999917
0.94630096, 38.153071,-0.061999917
0.94796639,    39.039,-0.061999917
0.94964287, 40.056876,-0.073999763
0.95132247, 40.823425,-0.055999637
0.95298379, 41.659089,-0.06799984
0.95464777, 42.249708,-0.06799984
0.95631165, 43.000549,-0.06799984
 0.9579719, 43.685416,-0.049999714
0.95963867, 44.437827,-0.043999791
0.96130255, 45.267208,-0.037999868
0.96296795, 45.835836,-0.025999665
0.96462864, 46.321212,-0.025999665
0.96630369, 46.806588,-0.019999743
0.96797576, 47.094044,0.016000152
0.96964001, 47.158447,0.058000326
0.97132791, 46.913402,0.058000326
