# ./bin/dynamometer -c asdf --test-mode GRP --frequency 600 --duration 10 
time [s],a1 velocity [rad/s],trs605-5 torque [Nm]
0.011679925,-0.050265482,0.0040003061
0.013349716,0.13980087,0.010000229
0.015014766,0.018849556,-0.0019996166
0.01668439,0.080110611,0.0040003061
0.018347866,-0.058119463,0.0040003061
0.020013046,0.036128315,0.0040003061
0.021676559,-0.059690259,0.0040003061
0.023344832,0.015707963,-0.0019996166
0.025006937,-0.010995574,0.0040003061
0.026701043,0.0078539815,0.010000229
0.028349186,-0.061261056,0.010000229
0.030010532,-0.025132741,0.0040003061
0.031670193,-0.086393797,0.0040003061
0.033335003,-0.20420352,0.0040003061
0.035001886,-0.067544241,-0.0019996166
0.036668936,-0.097389371,-0.0019996166
0.038345653,0.018849556,-0.007999897
0.040003407,0.028274333,-0.01399982
0.041669402,0.083252204,-0.031999588
0.043344137,0.41469022,-0.043999791
0.045009169,0.67544241,-0.061999917
0.046669756, 1.1262609,-0.085999608
0.048337695,  1.796991,-0.10399973
0.050001671, 2.8352873,-0.10399973
0.051662036,  3.986681,-0.10399973
0.053327493, 5.5150658,-0.10399973
0.054994988, 7.1565479,-0.12199986
0.056666168, 9.0430743,-0.091999888
0.058338755, 10.777233,-0.091999888
0.060003027, 12.439136,-0.097999811
0.061661818, 14.256547,-0.091999888
0.063326868, 15.923162,-0.091999888
0.065004307, 17.296038,-0.097999811
0.066658135, 18.863693,-0.097999811
0.068323334, 20.167454,-0.10399973
0.06999055, 21.598449,-0.11599994
0.071653971, 23.026303,-0.11599994
0.073324077, 24.383471,-0.11599994
0.074989293, 26.051657,-0.10999966
0.07665314, 27.485794,-0.10399973
0.07831769, 29.042453,-0.097999811
0.079983925,  30.73263,-0.097999811
0.081652012, 32.314421,-0.10399973
0.083320063, 33.781545,-0.10399973
0.084983113, 35.137142,-0.097999811
0.086646885, 36.472319,-0.10999966
0.088311787,  37.99285,-0.085999608
0.089983819, 39.277761,-0.061999917
0.091643943, 40.722894,-0.043999791
0.093308919, 41.809885,-0.025999665
0.094977914, 42.703668,-0.007999897
0.09664439, 42.967562,0.010000229
0.098310088, 43.105792,0.022000074
0.099976953, 42.939288, 0.0400002
 0.1016503, 42.386367,0.034000278
0.10332022, 41.525571,0.058000326
0.10498566, 40.435438,0.058000326
0.10664328,   39.2542,0.064000249
0.10830809, 37.898602,0.058000326
  0.109973, 36.586987,0.052000403
0.11163855, 35.071169, 0.0400002
0.11330704, 33.635461,0.022000074
 0.1149724, 32.226457,-0.0019996166
0.11663853, 31.059355,-0.007999897
0.11830351, 30.198559,-0.025999665
0.11997048, 29.736745,-0.043999791
0.12163766, 29.501125,-0.055999637
0.12331034, 29.592231,-0.079999685
0.12497669, 29.951944,-0.097999811
0.12664226, 30.605395,-0.097999811
0.12830829, 31.656258,-0.10399973
0.12997447, 32.993005,-0.085999608
0.13163307, 34.345461,-0.091999888
0.13329758, 35.719908,-0.085999608
0.13496299, 36.971833,-0.073999763
0.13662763, 38.198624,-0.06799984
0.13829512, 39.516523,-0.061999917
0.13996395, 40.473137,-0.031999588
0.14162839, 41.299376,-0.01399982
0.14329687, 41.670084,0.0040003061
0.14495662, 41.844443,0.034000278
0.14662639, 41.863292,0.058000326
0.14829437,  41.14858,0.088000298
0.14995944, 40.338049,0.09400022
0.15162412, 38.812806,0.10000014
0.15329037, 37.132054,0.10600007
0.15495637, 35.088448,0.12400019
0.15662386,   32.8642,0.11200035
0.15828682, 30.335218,0.11200035
0.15995365, 27.974311,0.10600007
 0.1616237, 25.332232,0.10000014
0.16329452, 23.064002,0.088000298
0.16496054, 20.726657,0.09400022
0.16662598, 18.725463,0.088000298
0.16828549, 16.752543,0.076000094
0.16995061, 14.922565,0.070000172
0.17161568, 13.142853,0.064000249
0.17328144,  11.75741,0.076000094
0.17494849, 10.004402,0.070000172
0.17661202, 8.8027425,0.064000249
0.17827757, 7.3230524,0.058000326
 0.1799438, 6.1465259,0.064000249
0.18161402, 4.9448668,0.064000249
0.18327978, 3.6505306,0.064000249
0.18495331,  2.621659,0.058000326
0.18661717, 1.3131857,0.064000249
0.18827683,0.44924774,0.058000326
0.18994918,-0.7209955,0.052000403
 0.1916144,-1.6446237,0.046000123
0.19327478,-2.6075219, 0.0400002
0.19493996,-3.5876987,0.034000278
0.19660649,-4.2976987, 0.0400002
0.19827306,-5.0092694,0.028000355
0.19993904,-5.6925658,0.028000355
0.20160762,-6.2910392,0.016000152
 0.2032803,-6.7371453,0.016000152
0.20494228,-7.2350878,0.016000152
0.20660409,-7.4282957,0.016000152
0.20826975,-7.7236054,0.010000229
0.20993349,-7.9309505,0.016000152
0.21160139,-8.1649992,0.022000074
 0.2132701,-8.2451098,0.0040003061
0.21494156,-8.4665921,-0.0019996166
0.21660389,-8.5404195,-0.0019996166
0.21827036,-8.7509062,-0.0019996166
0.21993458,-8.6849327,-0.007999897
 0.2215983,-8.6660832,-0.019999743
0.22326194,-8.4932956,-0.025999665
0.22492575,-8.2451098,-0.025999665
0.22659238,  -7.98907,-0.019999743
0.22825743,-7.5398222,-0.025999665
 0.2299249,-7.1047117,-0.019999743
0.23159069,-6.6696011,-0.01399982
0.23325982,-6.2046454,-0.019999743
0.23493118,-5.5323446,-0.025999665
0.23658969,-5.0940924,-0.019999743
0.23825854,-4.6244243,-0.019999743
0.23992409,-4.1814598,0.0040003061
0.24159912,-3.8186058,-0.0019996166
0.24325538,-3.4903094,0.0040003061
0.24492028,-3.1777209,-0.0019996166
0.24658588,-3.1164599,-0.0019996166
0.24825379,-2.9295351,0.010000229
0.24991874,-2.7818802,0.010000229
0.25158694,-2.8949776,0.0040003061
0.25325425,-2.8619909,0.010000229
0.25492104,-2.8776988,0.010000229
0.25658359,-3.0080749,0.0040003061
 0.2582479,-3.1840041,-0.0019996166
0.25991262,-3.2091368,-0.0019996166
0.26157824,-3.3395129,-0.0019996166
 0.2632509, -3.400774,-0.01399982
0.26491847,-3.2484067,-0.025999665
0.26658358,-3.2688271,-0.043999791
0.26824926,-2.8023006,-0.061999917
0.26991566,-2.2588051,-0.079999685
 0.2715776,-1.4969689,-0.097999811
0.27324487,-0.24190263,-0.10999966
0.27490876, 1.1325441,-0.12199986
0.27657442,  2.653075,-0.11599994
0.27824145,  4.519181,-0.12199986
0.27990329, 6.6428976,-0.12199986
0.28156944, 8.5765478,-0.12199986
0.28323588, 10.668848,-0.12199986
0.28490207, 12.812985,-0.11599994
0.28656872,  14.79533,-0.11599994
0.28823393, 16.783958,-0.12199986
0.28990823, 18.659489,-0.10999966
0.29157314, 20.582144,-0.11599994
0.29324157, 22.561347,-0.091999888
 0.2949048, 24.306502,-0.097999811
0.29657043, 25.938559,-0.06799984
0.29823875, 27.525064,-0.079999685
 0.2999003, 28.868094,-0.091999888
0.30156422, 30.005351,-0.091999888
0.30322826, 31.299687,-0.091999888
0.30489231,   32.5092,-0.091999888
0.30656386, 33.486236,-0.079999685
0.30822822, 34.898381,-0.085999608
0.30989516, 36.106324,-0.079999685
0.31155988, 37.402231,-0.073999763
0.31322741, 38.541058,-0.055999637
0.31489096, 39.628049,-0.06799984
0.31655693,  40.67577,-0.073999763
0.31822471, 41.619819,-0.079999685
0.31989033, 42.548159,-0.073999763
0.32155462, 43.553469,-0.079999685
0.32323058, 44.571345,-0.085999608
0.32489322, 45.584509,-0.085999608
0.32655914, 46.537982,-0.091999888
0.32822468, 47.467893,-0.085999608
0.32988976, 48.330261,-0.079999685
0.33155615, 49.514641,-0.079999685
0.33321949, 50.295327,-0.055999637
0.33488304, 51.401167,-0.061999917
0.33654876,-50.576499,-0.061999917
 0.3382152,-49.544486,-0.061999917
0.33988721, -48.72453,-0.061999917
0.34154898,-48.034951,-0.049999714
0.34321842,-47.196146,-0.037999868
0.34488525,-46.729619,-0.037999868
0.34655287,-46.206544,-0.019999743
0.34821842,-45.730593,-0.019999743
0.34988697,-45.669332,-0.007999897
0.35154915,-45.556234,0.0040003061
0.35321535,-45.768292,-0.0019996166
0.35488087,-46.256809,-0.007999897
0.35654982,-46.784597,-0.01399982
0.35821343,-47.277827,-0.019999743
0.35987924,  -47.6988,-0.01399982
0.36154807,-48.256433,-0.019999743
0.36321882,-48.693115,-0.025999665
0.36487832,-48.947584,-0.043999791
0.36654916,-49.126654,-0.055999637
0.36822619,-49.214619,-0.061999917
0.36987861,-49.167495,-0.061999917
0.37154146,-48.935017,-0.073999763
0.37320749,-48.377384,-0.091999888
0.37487832, -47.77734,-0.097999811
0.37654122,-46.910261,-0.085999608
0.37820175,-46.110725,-0.079999685
0.37986956,-44.861942,-0.06799984
0.38153239,-43.765527,-0.073999763
0.38320013,-42.675394,-0.06799984
0.38486482, -41.76119,-0.073999763
0.38652923,-40.804575,-0.073999763
0.38819733,-39.584067,-0.055999637
0.38987733,-38.716987,-0.055999637
 0.3915296,-37.908027,-0.061999917
0.39319404,-37.044089,-0.055999637
0.39486214,-36.483315,-0.019999743
0.39652751,-35.903691,-0.019999743
0.39819269,-35.642939,-0.007999897
0.39985802,-35.682209,-0.01399982
 0.4015281,-35.697917,-0.007999897
0.40319028,-35.947673,0.0040003061
0.40485702,-36.346656,-0.01399982
0.40652375,-36.715793,-0.01399982
0.40819621,-37.075505,-0.007999897
0.40985206,-37.447784,-0.01399982
 0.4115167,-37.691257,-0.0019996166
0.41318562,-37.864045,-0.007999897
0.41485049,-38.186058,0.0040003061
 0.4165165,-38.181346,0.010000229
0.41818581,-38.602319,0.016000152
0.41985523,-38.966744,0.046000123
0.42151967,-39.486677,0.064000249
0.42318583,-40.292496,0.076000094
0.42485053,-41.522429,0.076000094
0.42651839,-42.862319,0.088000298
0.42818339,-44.497518,0.088000298
 0.4298492,-46.548978,0.082000375
0.43151789,-48.512473,0.088000298
0.43318093,-50.783844,0.076000094
0.43484627, 49.816234,0.070000172
 0.4365134, 47.537008,0.064000249
0.43818626, 45.582938,0.070000172
0.43984366, 43.801655,0.064000249
0.44150803, 42.015659,0.052000403
0.44317476, 40.391456,0.028000355
 0.4448408,  38.88035,0.022000074
0.44650879, 37.612717,0.010000229
0.44817406, 36.586987,0.0040003061
0.44984008, 36.046633,-0.007999897
0.45150839, 35.536125,-0.031999588
0.45317105, 35.174842,-0.025999665
0.45483404, 35.154421,-0.01399982
0.45650448, 35.276943,-0.019999743
0.45816927, 35.443448,-0.025999665
0.45983117, 35.600527,-0.025999665
 0.4614978, 35.806302,-0.025999665
0.46316692, 35.856567,-0.031999588
0.46483588,  36.11889,-0.043999791
0.46650267, 36.167585,-0.043999791
0.46816511, 36.401633,-0.061999917
0.46983384, 36.788049,-0.073999763
0.47149577, 37.011102,-0.085999608
0.47316689, 37.650417,-0.097999811
 0.4748329, 38.509642,-0.10999966
 0.4765019, 39.321744,-0.12199986
0.47816589, 40.402452,-0.12199986
0.47984052, 41.842872,-0.11599994
0.48149386, 43.364973,-0.11599994
0.48316167, 44.805394,-0.10999966
0.48482992, 46.520703,-0.10399973
0.48649075, 48.036522,-0.091999888
0.48816002, 49.566477,-0.097999811
0.48981993, 50.969198,-0.097999811
0.49148726,-50.464973,-0.091999888
0.49315847,-48.986853,-0.097999811
0.49482062,-47.551146,-0.097999811
0.49649181,-46.418601,-0.091999888
0.49815977, -45.35046,-0.085999608
0.49982278,-44.067119,-0.079999685
0.50148554,-42.992695,-0.073999763
0.50315053,-42.043934,-0.073999763
0.50482317,-40.994642,-0.06799984
0.50648552,-40.190394,-0.079999685
0.50814985,-39.463115,-0.073999763
0.50981405,-38.644731,-0.073999763
 0.5114816,-37.865616,-0.073999763
0.51314835,-36.989111,-0.06799984
 0.5148142,-36.170726,-0.055999637
0.51648016,-35.240815,-0.043999791
0.51814896,-34.761722,-0.031999588
0.51981377, -34.34389,-0.019999743
0.52148227,-34.288912,-0.007999897
0.52314256,-34.309333,0.010000229
0.52481218,-34.724023,0.016000152
0.52648248,-35.273802,0.028000355
 0.5281513,-35.997939,0.022000074
0.52980863, -36.98597,0.010000229
0.53147896,-37.640992,0.028000355
0.53314866, -38.64316,0.022000074
0.53481626,-39.403425,-0.0019996166
0.53648392,-40.213956,-0.0019996166
0.53814046,-40.905106,-0.0019996166
0.53980073,-41.410903,0.0040003061
0.54146902,-42.081633,0.022000074
0.54314133,-42.658115,0.016000152
0.54480336,-43.339841,0.0040003061
0.54647945,-43.957164,-0.0019996166
 0.5481389,-44.576057,0.010000229
0.54981368,-45.067717,0.010000229
0.55146987,-45.531102,0.010000229
0.55313724,-46.154708,0.0040003061
0.55480162,-46.724907,-0.007999897
0.55646573,-47.414486,-0.007999897
0.55813028,-47.953269,-0.0019996166
0.55980357,-48.410371,0.0040003061
0.56146429,-48.942871,-0.0019996166
 0.5631276,-49.583756,-0.01399982
0.56479831,-50.020437,-0.025999665
0.56646209,-50.574928,-0.043999791
0.56812582,-50.863955,-0.055999637
0.56979802,-50.944066,-0.061999917
0.57146018,-50.804265,-0.091999888
0.57312934, -50.55765,-0.10399973
0.57483911,-50.047141,-0.10999966
0.57645448,-49.238181,-0.10399973
 0.5781234,-48.075792,-0.10999966
 0.5797966,-46.930681,-0.10399973
 0.5814563,-45.634774,-0.10399973
0.58312329,-44.276035,-0.10399973
0.58480227,-42.956566,-0.10399973
0.58646396,-41.703071,-0.091999888
 0.5881212,-40.473137,-0.073999763
0.58979636,-39.040571,-0.049999714
0.59147449,-38.159355,-0.025999665
 0.5931177,-37.292275,-0.01399982
0.59478268,-36.616833,0.022000074
0.59645432,-36.180151,0.034000278
0.59811513,-36.426766,0.046000123
0.59977605,-36.924709,0.058000326
0.60144575,-37.936301,0.058000326
0.60311028,-39.383005,0.082000375
0.60478022,-40.961655,0.09400022
0.60645099,-42.942429,0.082000375
 0.6081599,-44.965615,0.076000094
0.60978304,-47.059486,0.058000326
0.61144218,-49.330858, 0.0400002
0.61311534, -51.03203,0.028000355
0.61478254,  49.78953,0.022000074
0.61644876, 48.056942,0.016000152
0.61812114,  46.79088,-0.025999665
0.61977838, 45.540526,-0.043999791
0.62143428, 44.883933,-0.06799984
0.62311212, 44.755128,-0.085999608
0.62477762, 44.893358,-0.091999888
0.62643839, 45.483978,-0.091999888
0.62810864, 46.250526,-0.091999888
0.62977223, 47.182008,-0.091999888
0.63144482, 48.514044,-0.097999811
0.63311205, 49.912052,-0.10399973
 0.6347734,-51.437296,-0.073999763
0.63645008, -50.16338,-0.085999608
0.63809591,-48.653845,-0.055999637
0.63976062,-47.541721,-0.037999868
0.64143016,-46.520703,-0.019999743
0.64309885,-45.515394,0.0040003061
0.64476579,-45.020593,0.016000152
0.64643808,-44.784973, 0.0400002
0.64809586,-44.934199,0.058000326
 0.6497632,-45.325327,0.070000172
0.65142903,-46.264663,0.064000249
0.65309732,-47.312385,0.082000375
0.65476178,-48.696256,0.082000375
0.65642357,-50.475968,0.09400022
0.65809788, 50.728867,0.088000298
0.65978321, 48.793645,0.088000298
0.66142161,  46.75161,0.058000326
0.66309381, 44.764553,0.070000172
0.66476003, 42.917297,0.058000326
0.66641848, 41.183137,0.058000326
 0.6680889, 39.562076,0.052000403
0.66974988, 38.025837,0.052000403
0.67141365, 36.594841,0.046000123
0.67308783,  35.33035, 0.0400002
0.67475086, 33.955904,0.034000278
0.67641677, 32.595594,0.046000123
0.67808513, 31.464621,0.064000249
0.67975961, 30.236258,0.052000403
0.68141486, 29.188537,0.064000249
0.68307997, 27.974311,0.070000172
0.68474815,  26.78836,0.064000249
0.68648266, 25.321236,0.046000123
0.68809776, 24.094444,0.046000123
0.68975115,  22.64617,0.028000355
0.69141351, 21.449223,0.034000278
0.69308153, 20.326104,0.022000074
 0.6947425, 19.294091,0.0040003061
0.69642144, 18.331193,-0.0019996166
0.69808055,  17.53637,-0.007999897
0.69974136, 17.140529,-0.007999897
0.70141248, 16.758826,-0.01399982
 0.7030734, 16.414821,-0.01399982
0.70474408, 16.344136,-0.019999743
0.70640365, 16.295441,-0.01399982
0.70807377, 16.388118,-0.019999743
0.70974155, 16.417963,-0.01399982
0.71140424, 16.516923,0.0040003061
0.71307367, 16.523206,0.0040003061
0.71474066, 16.364556,0.016000152
0.71640338, 16.204335,0.034000278
0.71806802, 15.783361,0.058000326
0.71974201, 15.279136,0.058000326
0.72139919, 14.624114,0.082000375
0.72306443,   13.5921,0.088000298
  0.724729, 12.424999,0.088000298
 0.7263927, 11.039556,0.088000298
0.72806058,  9.245707,0.09400022
0.72972735, 7.4769904,0.10000014
0.73139146, 5.7255525,0.10000014
 0.7330596,  3.978827,0.09400022
0.73471939, 2.0451768,0.088000298
0.73638507,0.14451326,0.088000298
0.73805101,-1.3917255,0.088000298
0.73972154,-3.1934289,0.076000094
0.74138354,-4.7438048,0.076000094
0.74304923,-6.1826542,0.076000094
0.74471486,-7.6089373,0.076000094
0.74638091,-8.7351982,0.076000094
0.74804677,-9.9525654,0.082000375
0.74971295,-10.990862,0.082000375
0.75137878,-12.060574,0.082000375
0.75304476,-13.249667,0.082000375
0.75471099,-14.452897,0.076000094
 0.7563768,-15.649844,0.070000172
  0.758043,-16.768251,0.064000249
0.75970888,-17.789268,0.064000249
0.76137486,-18.705042,0.052000403
0.76304097,-19.645949,0.046000123
0.76470683,-20.453339,0.034000278
0.76637284,-21.095794,0.022000074
 0.7680386,-21.475927,0.0040003061
0.76970535, -21.83721,-0.01399982
0.77137107,-21.878051,-0.025999665
0.77303688,-21.626723,-0.049999714
0.77470284,-20.962277,-0.06799984
0.77636877,-20.110905,-0.073999763
0.77803494,-19.050618,-0.073999763
0.77970084,-17.706016,-0.073999763
0.78136676,-16.268737,-0.06799984
0.78303301,-14.627255,-0.06799984
0.78469899,-12.992056,-0.061999917
0.78636489,-11.491946,-0.055999637
 0.7880309,-9.8111937,-0.055999637
0.78969686,-8.5278531,-0.049999714
0.79136291,-7.2319462,-0.049999714
0.79302894,-6.0664153,-0.043999791
0.79469481,-4.9668579,-0.043999791
0.79636093,-4.0212385,-0.037999868
  0.798034,-3.0976103,-0.031999588
0.79969998,-2.2949334,-0.025999665
0.80136247,-1.6446237,-0.031999588
0.80302798,-0.96761052,-0.025999665
0.80469061,-0.48380526,-0.019999743
0.80635692,0.081681408,-0.019999743
 0.8080228,0.52935835,-0.019999743
0.80968885, 1.0838494,-0.019999743
0.81135505, 1.4215707,-0.007999897
0.81302069, 1.8331193,0.0040003061
0.81468691, 2.1221458,0.016000152
0.81635287,  2.359336, 0.0400002
0.81801906, 2.2650883,0.058000326
0.81968476, 1.9650662,0.082000375
0.82135104, 1.4231414,0.10600007
0.82301688,0.48380526,0.11800027
0.82468295,-0.90949106,0.12400019
0.82634883,-2.4033183,0.11800027
0.82801463,-4.4123668,0.11800027
0.82968086,-6.5800657,0.12400019
0.83134682,-8.4587381,0.12400019
0.83301281,-10.653141,0.11800027
0.83467883,-12.748583,0.11200035
 0.8363448,-14.660242,0.10600007
0.83801091,-16.460374,0.10000014
0.83967662,-18.357896,0.10000014
0.84134497,-20.024511,0.09400022
0.84300878,-21.739821,0.082000375
0.84467489,-23.186524,0.070000172
0.84634097, -24.59867,0.064000249
0.84800669,-25.739068,0.052000403
0.84967463,-26.723957,0.046000123
 0.8513469,-27.592608,0.052000403
0.85301434,-28.305749,0.052000403
0.85467167, -28.78013,0.046000123
0.85633696, -29.09586,0.046000123
0.85800292,-29.457143,0.046000123
 0.8596688,-29.728891, 0.0400002
0.86133928, -30.22055, 0.0400002
0.86300092,-30.566125,0.046000123
 0.8646728,-30.961966,0.034000278
0.86634676,-31.360948,0.022000074
0.86801729,-31.789776,0.010000229
0.86967553,-32.053669,-0.0019996166
0.87134352,-32.135351,-0.007999897
0.87300642,-32.041103,-0.025999665
0.87467282,-31.535307,-0.031999588
0.87634321, -31.04993,-0.025999665
0.87800468, -30.39805,-0.031999588
0.87967309,-29.681767,-0.031999588
0.88133451,-28.765993,-0.019999743
0.88300452,-28.027718,-0.025999665
0.88468687,-27.333426,-0.025999665
0.88633949,-26.475772,-0.031999588
0.88799521,-25.764201,-0.0019996166
0.88966152,-25.201856,-0.007999897
0.89132925,-24.707055,0.010000229
0.89300278,-24.256236,0.046000123
0.89467191,-24.034754,0.088000298
0.89632794,-24.246812,0.09400022
0.89799547,-24.831148,0.11800027
 0.8996658,-25.748493,0.11200035
0.90133707,-26.904599,0.11200035
0.90300381,-28.392143,0.11200035
0.90465326,-30.099599,0.11200035
 0.9063258,-31.689245,0.10000014
0.90800188,-33.423404,0.10600007
 0.9096614,-35.242386,0.10000014
0.91132459,-36.949841,0.09400022
0.91299635,-38.669863,0.088000298
0.91465334,-40.234376,0.070000172
0.91632582,-41.527142,0.034000278
0.91798568,-42.606279,0.016000152
0.91964542,-43.577031,-0.019999743
0.92131588,-43.972872,-0.031999588
0.92297809,-44.216345,-0.055999637
0.92467053,-43.954022,-0.073999763
0.92632242,-43.011544,-0.073999763
0.92799245,-41.885283,-0.091999888
 0.9296625, -40.41973,-0.091999888
0.93131321,-38.508071,-0.079999685
0.93298604,-36.894863,-0.079999685
0.93464693,  -34.9942,-0.06799984
0.93630555,-32.909753,-0.061999917
0.93797088,-30.965107,-0.06799984
0.93963741,-29.395882,-0.06799984
0.94131952,-27.788957,-0.06799984
0.94298538,-26.224444,-0.085999608
0.94465132,-24.700772,-0.091999888
 0.9463172,-23.120551,-0.11599994
0.94797275,-21.405241,-0.10399973
0.94964625,-19.474733,-0.10999966
0.95130498,-17.486104,-0.11599994
 0.9529649,-15.451923,-0.11599994
0.95463051,-13.310928,-0.12199986
0.95629673, -11.16522,-0.11599994
0.95798117,-8.8090257,-0.10999966
0.95964385,-6.6067692,-0.10399973
0.96130845,-4.3322562,-0.085999608
0.96298074,-2.2336723,-0.079999685
 0.9646357,-0.061261056,-0.061999917
0.96630369, 1.6870352,-0.031999588
